RA[deg]	DEC[deg]	z_low
187.2397	57.9614	0.02
123.0491	57.7265	0.02
155.4949	56.8700	0.02
203.8066	56.7925	0.02
205.9567	56.7925	0.02
173.8268	54.6451	0.02
174.4129	54.4176	0.02
120.9668	53.5118	0.02
188.6874	52.8371	0.02
121.5233	52.7624	0.02
197.4851	52.7624	0.02
135.0002	50.1755	0.02
164.3426	49.9562	0.02
195.4133	48.6481	0.02
185.5514	47.8548	0.02
130.4599	47.5675	0.02
240.1244	47.4958	0.02
120.4124	46.6377	0.02
186.9508	46.0684	0.02
164.8291	45.9974	0.02
153.4563	44.9363	0.02
163.2051	44.7954	0.02
122.3426	44.7250	0.02
168.8738	43.8825	0.02
182.5571	42.4186	0.02
238.7312	42.4186	0.02
153.8202	39.8697	0.02
184.3018	39.5963	0.02
133.3886	39.0507	0.02
189.3610	38.8465	0.02
218.9117	38.5067	0.02
159.9727	37.6936	0.02
173.7084	37.3558	0.02
181.6677	37.2883	0.02
145.5348	36.4129	0.02
162.1573	36.0101	0.02
232.2013	35.8760	0.02
206.0033	35.4743	0.02
206.5087	35.3406	0.02
144.3292	34.4066	0.02
140.2010	33.8083	0.02
183.6105	32.1545	0.02
150.2576	31.3647	0.02
151.6119	30.8396	0.02
211.4162	28.9449	0.02
194.7741	28.4246	0.02
172.4291	28.2947	0.02
137.2367	28.0999	0.02
124.1168	27.4516	0.02
198.0833	27.4516	0.02
198.1554	27.4516	0.02
161.4450	27.2573	0.02
156.0076	25.8370	0.02
120.0473	25.7726	0.02
122.5031	25.4507	0.02
230.1037	24.6797	0.02
230.4898	24.2307	0.02
183.2328	24.1025	0.02
154.1760	23.9744	0.02
171.3255	23.9744	0.02
238.0628	23.9104	0.02
147.8278	23.7824	0.02
165.7532	23.5904	0.02
220.1128	23.3985	0.02
236.7575	23.2707	0.02
145.7862	22.8236	0.02
126.7094	19.5820	0.02
191.9226	19.3922	0.02
178.1018	18.5072	0.02
161.9292	16.8684	0.02
134.0856	16.5538	0.02
226.5461	16.5538	0.02
202.5321	16.4910	0.02
161.3434	16.3023	0.02
124.3794	15.7997	0.02
180.8637	15.6114	0.02
195.7425	15.4859	0.02
203.7561	15.3604	0.02
152.5602	15.2976	0.02
209.2972	15.2349	0.02
183.8711	14.6706	0.02
232.4922	13.6062	0.02
146.7082	13.3561	0.02
233.0979	13.0435	0.02
150.0949	12.7311	0.02
228.9620	12.0443	0.02
144.7570	11.4205	0.02
203.1889	10.2367	0.02
213.3975	10.0499	0.02
193.9075	9.9255	0.02
213.1752	9.7388	0.02
177.6066	9.4899	0.02
172.8873	8.4952	0.02
187.7323	8.4952	0.02
175.1187	7.8740	0.02
138.2881	7.1290	0.02
199.3470	6.3225	0.02
234.7760	5.9504	0.02
164.4414	5.8264	0.02
205.1707	5.2685	0.02
204.7505	4.5250	0.02
168.3570	4.4011	0.02
199.6384	3.9675	0.02
144.9472	3.5340	0.02
221.2365	3.4721	0.02
180.5764	3.3482	0.02
173.6004	2.9767	0.02
150.3933	2.9148	0.02
170.5173	2.4815	0.02
185.7396	2.4815	0.02
197.7396	57.6177	0.025
155.7428	56.6042	0.025
230.4350	56.6042	0.025
227.8417	55.6774	0.025
225.5443	53.6961	0.025
172.6957	53.6206	0.025
172.6521	53.1685	0.025
197.9553	53.0182	0.025
138.6000	52.1205	0.025
239.6867	51.9715	0.025
163.4242	50.3445	0.025
177.3975	49.9044	0.025
226.2799	49.3198	0.025
141.7854	48.8104	0.025
167.4560	48.5202	0.025
218.5555	48.2306	0.025
198.2802	47.7252	0.025
228.7683	47.6532	0.025
197.7732	47.3653	0.025
216.2007	47.0064	0.025
167.7896	46.8630	0.025
236.9478	46.1485	0.025
199.2127	44.5884	0.025
138.6135	44.0953	0.025
176.8458	43.5336	0.025
161.7502	42.2072	0.025
138.0944	41.8600	0.025
203.5380	41.5826	0.025
138.7456	41.4441	0.025
127.4865	41.3057	0.025
228.5908	40.9603	0.025
227.9683	40.8223	0.025
194.8661	39.9965	0.025
121.3724	39.5850	0.025
130.5145	39.4480	0.025
163.7181	39.4480	0.025
221.8790	36.2571	0.025
216.7731	36.1225	0.025
216.3888	35.8534	0.025
169.5161	35.4505	0.025
140.9432	34.5800	0.025
150.6250	34.3128	0.025
205.5143	34.2461	0.025
150.5029	34.1794	0.025
204.9751	33.7795	0.025
180.4170	33.2474	0.025
143.7580	31.9225	0.025
143.5155	31.3945	0.025
128.8608	31.1310	0.025
213.6867	30.0795	0.025
168.1690	29.6863	0.025
196.0035	29.5553	0.025
131.2290	28.9669	0.025
182.5194	28.8363	0.025
195.2688	27.9239	0.025
139.1021	27.4688	0.025
196.3569	27.1441	0.025
120.5199	27.0144	0.025
204.6419	27.0144	0.025
122.9047	25.5907	0.025
128.6968	25.0746	0.025
128.3521	24.7525	0.025
170.5727	24.4307	0.025
141.2962	23.7880	0.025
207.9177	23.7238	0.025
180.6753	22.8902	0.025
145.6162	22.5061	0.025
168.2693	22.3143	0.025
162.0370	21.8031	0.025
162.4031	21.6116	0.025
209.9147	21.1651	0.025
126.0539	20.7828	0.025
239.7737	20.5281	0.025
176.2647	20.3372	0.025
148.3235	20.2100	0.025
208.2067	19.0669	0.025
138.3167	18.5598	0.025
125.0255	18.3698	0.025
138.7477	17.9900	0.025
236.4201	17.9267	0.025
138.9736	17.8635	0.025
152.2185	17.6737	0.025
166.7542	17.6105	0.025
190.8989	17.5473	0.025
122.7334	16.9787	0.025
145.1948	16.1586	0.025
233.8422	15.4657	0.025
146.0994	15.4028	0.025
149.8317	15.1510	0.025
166.3326	14.5222	0.025
202.2790	14.0197	0.025
135.6080	13.5803	0.025
198.5949	12.8278	0.025
215.4012	11.4503	0.025
222.5419	11.4503	0.025
162.7009	11.3253	0.025
142.8149	10.8876	0.025
163.0652	10.6376	0.025
223.7944	10.2628	0.025
194.8010	9.3265	0.025
186.6046	9.1394	0.025
186.7385	9.0146	0.025
214.3829	8.3288	0.025
204.6025	7.0831	0.025
154.5321	6.9586	0.025
237.9708	6.5852	0.025
161.0947	6.2119	0.025
196.2645	5.0925	0.025
125.1043	4.9060	0.025
221.3024	4.8439	0.025
159.5745	4.7817	0.025
167.5208	4.4710	0.025
123.6619	4.0982	0.025
168.0627	4.0982	0.025
217.5038	3.9118	0.025
133.0217	3.8497	0.025
198.3951	3.4770	0.025
145.3511	2.9180	0.025
176.2059	2.8559	0.025
186.9606	2.7317	0.025
207.1210	2.4212	0.025
230.3685	2.1729	0.025
199.1193	1.8624	0.025
231.4562	58.4373	0.03
152.1113	58.1135	0.03
167.9144	57.9520	0.03
219.4272	57.1484	0.03
220.8649	54.2279	0.03
135.1584	53.7616	0.03
155.5393	53.2972	0.03
188.1640	52.9886	0.03
196.5330	52.9115	0.03
136.5259	52.6808	0.03
225.0429	52.6039	0.03
240.3700	51.6859	0.03
192.8076	50.5478	0.03
174.2629	50.0954	0.03
227.4346	48.8221	0.03
153.9703	47.4129	0.03
170.8247	46.9709	0.03
148.2129	46.8973	0.03
120.6781	46.4568	0.03
199.0962	46.4568	0.03
166.4767	46.3835	0.03
137.8130	44.2735	0.03
213.5728	43.9847	0.03
139.8011	42.7631	0.03
239.9696	42.6916	0.03
172.5166	42.3342	0.03
166.4306	40.7703	0.03
129.3544	40.6996	0.03
128.8178	40.6288	0.03
159.1180	40.6288	0.03
228.5643	40.5581	0.03
195.6588	40.4168	0.03
128.4848	40.1346	0.03
227.1074	39.6416	0.03
164.6356	38.4499	0.03
149.9762	38.3102	0.03
217.3733	38.0310	0.03
149.5885	37.9613	0.03
165.6088	37.6827	0.03
136.5860	37.1960	0.03
151.8378	37.1960	0.03
195.2049	37.0572	0.03
218.6963	36.7105	0.03
172.6409	35.5362	0.03
187.5031	34.9859	0.03
173.6171	34.7112	0.03
176.3641	33.4112	0.03
200.9807	33.2748	0.03
199.4190	33.0703	0.03
155.9990	32.6619	0.03
232.0665	32.5259	0.03
223.1580	32.3221	0.03
221.3490	31.5762	0.03
146.1427	31.3732	0.03
132.2389	31.3056	0.03
132.6928	31.3056	0.03
166.2308	30.1585	0.03
146.7500	29.9566	0.03
166.1037	29.0164	0.03
166.4237	28.7484	0.03
195.7973	28.4137	0.03
219.9121	28.2800	0.03
144.5018	27.4788	0.03
187.3622	27.4788	0.03
201.4685	27.4121	0.03
232.5631	27.1456	0.03
238.0833	26.8793	0.03
175.4815	26.8128	0.03
188.2861	26.6798	0.03
174.6211	26.0156	0.03
178.8773	25.2866	0.03
141.6440	25.2204	0.03
223.8646	24.6254	0.03
204.6004	24.2292	0.03
206.7203	23.7677	0.03
139.6447	21.5344	0.03
131.2760	21.4035	0.03
172.8014	21.4035	0.03
167.8561	21.3380	0.03
151.5742	20.1617	0.03
185.3063	19.2491	0.03
136.9171	18.1435	0.03
143.3570	17.6242	0.03
239.8910	17.4944	0.03
137.6593	17.4296	0.03
164.2275	17.2999	0.03
185.3344	16.9758	0.03
162.0843	16.5225	0.03
152.0639	15.1002	0.03
150.9459	14.1971	0.03
122.1055	12.4591	0.03
158.3865	12.4591	0.03
157.4452	11.8166	0.03
175.5941	11.7524	0.03
134.2472	11.5597	0.03
181.4325	11.2388	0.03
224.9747	11.2388	0.03
133.1671	10.5332	0.03
127.9168	10.3409	0.03
162.9327	10.0205	0.03
191.2645	9.9564	0.03
182.8830	9.8923	0.03
197.7670	9.7001	0.03
166.0696	9.2519	0.03
146.5765	8.9958	0.03
165.6625	8.9318	0.03
233.2410	8.4840	0.03
220.9999	8.2921	0.03
189.0176	7.9723	0.03
232.3454	7.6527	0.03
140.4654	7.1415	0.03
231.4117	7.1415	0.03
200.1684	6.8221	0.03
157.1824	6.0558	0.03
146.4319	4.2057	0.03
125.0124	3.5681	0.03
190.4131	2.9307	0.03
207.5793	2.7395	0.03
219.5276	2.7395	0.03
173.0405	2.2297	0.03
209.4950	2.2297	0.03
199.1237	1.5289	0.03
200.2966	57.0766	0.035
184.4534	56.5984	0.035
167.4273	56.4394	0.035
224.5317	54.0835	0.035
146.7597	53.5409	0.035
136.6201	53.3863	0.035
192.9358	51.3192	0.035
189.7006	50.9403	0.035
223.1180	50.1857	0.035
234.9976	49.5103	0.035
173.4152	48.7639	0.035
119.8236	48.5408	0.035
150.4596	48.0216	0.035
224.7513	47.7257	0.035
151.4490	47.4305	0.035
132.6205	47.3568	0.035
164.3435	46.0365	0.035
213.3155	45.8177	0.035
203.7229	45.5263	0.035
237.0005	45.5263	0.035
197.9359	45.3808	0.035
125.9139	45.0903	0.035
163.8094	43.7896	0.035
136.3522	43.5020	0.035
122.5640	43.1432	0.035
205.7923	42.9283	0.035
183.3402	41.4317	0.035
183.4977	41.2898	0.035
192.8203	40.6529	0.035
182.2566	40.0886	0.035
227.9928	39.3156	0.035
160.9081	38.8953	0.035
120.3511	38.6855	0.035
159.5143	38.2666	0.035
160.0232	38.0575	0.035
235.2858	37.7790	0.035
194.8439	37.0846	0.035
169.1991	36.6691	0.035
219.5322	36.6691	0.035
211.5268	36.3925	0.035
147.3701	36.2544	0.035
169.7835	36.1853	0.035
153.2248	35.7027	0.035
173.8596	35.2212	0.035
146.3020	35.0152	0.035
217.0822	34.9466	0.035
209.1931	34.6723	0.035
201.1822	32.8974	0.035
139.5077	32.0150	0.035
159.7594	31.7441	0.035
186.1354	31.0683	0.035
160.8460	30.8659	0.035
202.3712	29.7220	0.035
201.7251	29.3194	0.035
206.8622	29.1184	0.035
166.4357	28.2489	0.035
166.7497	27.9819	0.035
120.4146	27.8485	0.035
183.8878	27.6485	0.035
214.6502	27.5152	0.035
196.2968	26.5842	0.035
211.0903	25.9209	0.035
153.5689	24.8626	0.035
178.7872	24.7965	0.035
154.3482	24.4006	0.035
136.2561	23.6103	0.035
197.7442	23.2815	0.035
186.0782	22.8873	0.035
220.8124	22.7560	0.035
234.6342	22.6904	0.035
138.4410	21.9038	0.035
131.5319	21.6420	0.035
143.6591	21.2496	0.035
173.8498	21.1189	0.035
119.6980	20.1400	0.035
229.5064	20.0096	0.035
152.9680	19.0333	0.035
125.0273	18.2539	0.035
150.8055	16.8283	0.035
221.5284	16.6342	0.035
225.6099	16.4402	0.035
220.4384	15.7295	0.035
172.2619	14.3752	0.035
140.4761	13.9889	0.035
158.9484	13.6671	0.035
140.1221	13.4099	0.035
160.8948	13.4099	0.035
196.6548	11.9966	0.035
148.4838	11.4193	0.035
121.3241	11.0988	0.035
209.3889	11.0988	0.035
164.1076	10.4581	0.035
210.1043	10.4581	0.035
210.4780	9.8180	0.035
210.6726	9.6260	0.035
221.3256	9.3062	0.035
182.0604	8.5391	0.035
164.1054	8.0918	0.035
178.7825	7.9641	0.035
193.5197	7.7087	0.035
226.7967	7.4533	0.035
179.9428	7.3256	0.035
232.3414	5.6671	0.035
157.2955	5.0934	0.035
229.3865	5.0934	0.035
171.5802	4.7748	0.035
140.2048	3.6283	0.035
163.5126	2.8006	0.035
130.4528	2.6096	0.035
212.6631	2.4823	0.035
196.3705	2.4187	0.035
146.6150	2.2914	0.035
201.5277	2.2277	0.035
159.7877	1.7185	0.035
156.8709	1.5276	0.035
155.0336	58.2789	0.04
186.4854	57.8745	0.04
158.9506	57.0706	0.04
144.6280	56.9905	0.04
206.0200	56.9905	0.04
168.6621	56.9106	0.04
138.3447	55.7182	0.04
129.1406	55.6392	0.04
222.0768	55.1663	0.04
149.6516	54.5390	0.04
123.4816	54.4608	0.04
216.5159	54.0708	0.04
189.0561	50.6178	0.04
160.5213	50.3910	0.04
188.1678	49.9386	0.04
157.0722	49.2629	0.04
140.5240	49.1133	0.04
122.5733	47.0347	0.04
172.7601	46.8138	0.04
173.5858	46.1531	0.04
179.0683	45.8604	0.04
211.9014	45.5683	0.04
223.9598	44.4778	0.04
137.0896	43.6829	0.04
221.3971	42.2476	0.04
143.5696	42.1761	0.04
236.5969	41.8193	0.04
156.8215	40.5410	0.04
233.4368	40.1170	0.04
195.6875	40.0464	0.04
216.0312	39.5531	0.04
121.6704	39.2015	0.04
132.6832	39.2015	0.04
215.8732	39.0611	0.04
180.2453	38.9207	0.04
131.9867	38.0111	0.04
194.5387	38.0111	0.04
175.9832	37.8715	0.04
150.3975	37.6623	0.04
133.6054	36.6891	0.04
190.6747	35.3756	0.04
148.7907	35.3067	0.04
219.5667	35.3067	0.04
170.4802	33.4544	0.04
139.0663	33.2495	0.04
170.7314	33.1130	0.04
201.5206	33.1130	0.04
121.4969	33.0448	0.04
141.4189	32.4318	0.04
205.8618	31.8882	0.04
134.7911	31.3458	0.04
206.6852	31.0075	0.04
186.0887	29.3894	0.04
186.3035	29.1878	0.04
177.8618	28.8522	0.04
142.9740	26.7138	0.04
217.1109	26.7138	0.04
120.6792	25.8495	0.04
167.4197	24.8551	0.04
159.7000	24.6566	0.04
137.6154	24.5244	0.04
181.4483	24.2600	0.04
129.1852	23.8638	0.04
129.0573	23.7978	0.04
156.5105	21.4306	0.04
228.8694	20.8411	0.04
157.2794	20.0565	0.04
123.0984	19.9912	0.04
173.0728	19.8606	0.04
178.6650	19.2082	0.04
235.7838	19.0127	0.04
235.8978	18.8824	0.04
223.8023	18.1664	0.04
222.8665	17.0621	0.04
121.8448	16.8675	0.04
154.3934	15.0547	0.04
206.3090	14.9900	0.04
124.5870	14.7316	0.04
146.8856	14.2150	0.04
210.8404	13.4410	0.04
181.2509	12.7968	0.04
148.8990	12.4749	0.04
148.9823	12.2818	0.04
180.6966	12.2818	0.04
170.4735	12.1531	0.04
188.4168	11.3173	0.04
167.8075	11.1246	0.04
167.5385	10.8676	0.04
147.6579	10.4824	0.04
225.7684	10.4182	0.04
174.0223	10.0974	0.04
189.8938	9.2637	0.04
123.9194	8.3667	0.04
121.3488	7.9826	0.04
125.2514	7.1507	0.04
234.5953	6.7669	0.04
135.4790	6.6390	0.04
200.3847	6.5112	0.04
169.0735	5.7441	0.04
231.7141	5.4886	0.04
190.4552	5.3608	0.04
155.9676	5.2330	0.04
194.1397	5.1053	0.04
167.6632	3.4453	0.04
196.0964	3.2538	0.04
178.0965	3.1900	0.04
150.0079	3.1262	0.04
159.0161	2.2967	0.04
210.3296	2.1691	0.04
220.1403	2.0415	0.04
134.3546	1.8502	0.04
205.8259	1.4674	0.04
149.8274	1.1485	0.04
158.0689	56.1774	0.045
138.8312	56.0993	0.045
129.3729	54.7031	0.045
173.5969	53.9350	0.045
237.1765	53.6292	0.045
154.7705	53.2481	0.045
218.4329	53.0960	0.045
220.4846	52.6409	0.045
147.9731	52.2630	0.045
186.6039	51.3608	0.045
233.4183	51.2111	0.045
205.8046	50.8375	0.045
193.3492	50.0937	0.045
199.1985	48.5453	0.045
127.3491	45.9305	0.045
191.1633	45.9305	0.045
159.6741	45.2124	0.045
187.4638	45.2124	0.045
173.1712	44.3551	0.045
198.4981	44.1416	0.045
226.0167	42.5133	0.045
170.8221	41.9507	0.045
143.6308	41.7403	0.045
167.9502	41.5300	0.045
183.8329	40.4826	0.045
140.4605	40.2739	0.045
147.2200	39.3029	0.045
201.4444	39.3029	0.045
201.8522	38.9573	0.045
154.0747	38.4057	0.045
138.4786	37.6499	0.045
156.1476	36.6920	0.045
228.4245	36.2148	0.045
217.6435	36.0106	0.045
235.2232	35.5349	0.045
237.8672	33.5080	0.045
222.9490	32.9034	0.045
190.2513	32.2335	0.045
166.8944	32.1666	0.045
209.9041	32.0329	0.045
150.0199	31.9661	0.045
200.1194	31.5655	0.045
191.1643	31.4321	0.045
197.0333	30.6332	0.045
182.7940	29.8369	0.045
170.5800	29.4396	0.045
222.0051	29.2412	0.045
155.2997	28.8448	0.045
136.9025	28.5808	0.045
231.6224	28.5149	0.045
203.8602	28.1853	0.045
180.6482	27.7904	0.045
138.1508	27.6589	0.045
193.2025	27.1991	0.045
223.7589	27.1991	0.045
156.8648	27.0023	0.045
168.8356	26.8711	0.045
231.7383	26.6745	0.045
146.5070	26.1507	0.045
180.2084	25.3016	0.045
203.3204	25.1059	0.045
143.8292	25.0408	0.045
170.8145	24.9104	0.045
237.7790	23.6099	0.045
152.4055	23.1559	0.045
225.9247	23.1559	0.045
180.5614	23.0263	0.045
161.5530	21.7328	0.045
161.0486	20.0578	0.045
173.8949	19.8007	0.045
177.4022	19.5438	0.045
182.6514	19.2870	0.045
176.3632	18.7098	0.045
137.1522	18.5817	0.045
217.7057	18.3255	0.045
185.8987	17.3660	0.045
207.0775	17.2382	0.045
143.5489	17.1105	0.045
135.3351	16.7912	0.045
121.7916	16.5360	0.045
224.0510	16.4722	0.045
224.2320	16.2809	0.045
237.5937	16.2809	0.045
144.6230	16.2171	0.045
236.6262	15.8985	0.045
209.9921	15.7710	0.045
227.3988	15.1981	0.045
154.1311	15.0072	0.045
166.5761	14.1809	0.045
125.6554	14.0539	0.045
205.0732	13.6729	0.045
146.2145	13.3557	0.045
204.6170	12.9752	0.045
166.5538	12.8484	0.045
144.9995	11.4554	0.045
145.3787	10.9496	0.045
191.9896	10.1282	0.045
128.0357	9.6232	0.045
127.7870	9.3707	0.045
137.8748	9.1815	0.045
194.6889	9.1184	0.045
227.1895	8.8661	0.045
227.3786	8.6770	0.045
160.9634	8.4878	0.045
208.9371	8.2987	0.045
238.9002	8.2987	0.045
156.8314	8.1097	0.045
200.1646	8.0467	0.045
122.0141	7.7947	0.045
158.0065	7.4798	0.045
155.2533	6.5984	0.045
167.4538	6.5984	0.045
198.0161	6.2838	0.045
232.1569	6.1580	0.045
231.7284	5.7806	0.045
232.7988	4.1461	0.045
213.4507	3.7064	0.045
196.4164	3.5807	0.045
190.2612	2.7642	0.045
189.9228	2.6386	0.045
143.4511	2.5758	0.045
179.3179	2.4502	0.045
143.7265	2.2619	0.045
170.6733	2.2619	0.045
181.4114	1.9479	0.045
213.0128	1.8224	0.045
223.9518	1.8224	0.045
154.8000	57.9102	0.05
211.7606	57.2816	0.05
205.3263	57.0468	0.05
200.5124	56.7347	0.05
185.1449	56.3458	0.05
235.5784	54.8045	0.05
179.1335	54.7280	0.05
206.9202	52.4568	0.05
193.9578	52.3819	0.05
145.1583	51.3374	0.05
149.9865	50.7445	0.05
176.4537	50.7445	0.05
213.1495	48.5450	0.05
225.5919	48.0369	0.05
120.9300	47.6028	0.05
128.9703	47.4585	0.05
196.0560	47.0262	0.05
128.6677	46.9543	0.05
131.8585	46.5235	0.05
158.3007	45.3098	0.05
165.5058	44.9547	0.05
198.6763	44.6712	0.05
236.0469	42.5609	0.05
181.3098	41.5157	0.05
182.4390	40.8225	0.05
228.3225	40.2008	0.05
188.6625	39.3753	0.05
226.8324	39.1695	0.05
197.5007	38.9639	0.05
155.0438	38.3485	0.05
198.3970	38.0756	0.05
169.7745	37.1234	0.05
144.4997	35.8384	0.05
169.3405	35.7710	0.05
147.1800	35.0980	0.05
130.2534	35.0308	0.05
228.4606	34.8965	0.05
130.6635	34.7623	0.05
209.6165	33.5579	0.05
234.6648	33.4245	0.05
140.8887	32.7585	0.05
181.3697	32.6920	0.05
236.2793	31.8956	0.05
197.1564	31.7631	0.05
165.3400	30.1787	0.05
163.2870	29.7841	0.05
151.2807	29.3245	0.05
126.4193	29.1278	0.05
216.8773	28.8657	0.05
187.4147	28.7347	0.05
206.3539	28.4730	0.05
172.1599	28.3423	0.05
221.5555	28.2769	0.05
169.2616	27.3634	0.05
223.1237	26.5178	0.05
239.7955	26.4528	0.05
145.4427	26.1283	0.05
177.2281	25.8689	0.05
147.8170	25.4802	0.05
177.7442	25.4155	0.05
235.1567	25.0920	0.05
159.3034	24.9627	0.05
207.3525	24.7689	0.05
213.0009	24.7043	0.05
182.7506	24.2525	0.05
226.7925	24.1235	0.05
233.5705	23.4794	0.05
161.2829	23.1578	0.05
141.0275	22.9007	0.05
205.1458	22.7080	0.05
176.3377	22.6438	0.05
128.4058	20.1484	0.05
234.0593	19.7021	0.05
208.0026	19.5110	0.05
163.2317	19.0018	0.05
215.0161	18.9382	0.05
169.5412	18.6839	0.05
213.1078	18.3662	0.05
227.0142	18.3662	0.05
188.8087	17.8583	0.05
196.2672	17.6680	0.05
226.0541	17.6680	0.05
165.3632	17.4778	0.05
236.2743	17.3510	0.05
139.5094	17.1609	0.05
218.1018	17.1609	0.05
178.8771	16.8442	0.05
187.9980	16.5277	0.05
219.0361	16.2114	0.05
146.4579	15.9586	0.05
159.6387	15.7058	0.05
209.0816	15.3900	0.05
137.7153	15.3269	0.05
135.2940	15.1375	0.05
169.0721	13.8767	0.05
183.0634	13.8767	0.05
134.2583	13.3731	0.05
235.4157	12.4300	0.05
150.1173	12.3043	0.05
158.6331	11.1118	0.05
222.1824	11.1118	0.05
171.2231	10.8610	0.05
153.3362	10.6102	0.05
224.2801	10.6102	0.05
188.2890	10.5475	0.05
128.6121	9.8585	0.05
141.7914	9.7958	0.05
125.7017	9.2951	0.05
122.0872	8.9197	0.05
175.6623	8.9197	0.05
198.9261	8.5444	0.05
199.4059	8.4819	0.05
199.1268	8.3569	0.05
203.3855	8.1693	0.05
193.3942	7.2321	0.05
177.2559	6.4829	0.05
239.1321	6.2333	0.05
164.2940	6.1085	0.05
231.2695	5.4846	0.05
231.5307	5.2351	0.05
170.7603	3.9260	0.05
171.5151	3.6144	0.05
127.2585	3.0537	0.05
127.7374	3.0537	0.05
231.7166	3.0537	0.05
141.5583	2.9291	0.05
168.3722	2.9291	0.05
215.0193	2.7422	0.05
213.0308	2.4308	0.05
134.3888	2.3685	0.05
152.5104	2.3685	0.05
161.6074	2.1194	0.05
191.9665	2.1194	0.05
199.0743	1.6212	0.05
179.3170	1.5589	0.05
195.3141	58.3690	0.055
220.7233	57.2552	0.055
155.5711	55.9189	0.055
204.4616	55.3736	0.055
228.9892	54.7537	0.055
176.5155	54.5221	0.055
142.6133	54.0604	0.055
196.0107	53.9070	0.055
144.7690	52.8383	0.055
129.9392	52.2320	0.055
198.7119	51.7792	0.055
178.7514	51.7039	0.055
178.9358	51.5535	0.055
153.2065	51.1032	0.055
182.4303	47.1919	0.055
200.5715	46.5386	0.055
199.9112	45.8882	0.055
166.1873	43.9535	0.055
234.9725	41.4799	0.055
191.9991	40.9195	0.055
189.7967	40.5702	0.055
129.4462	39.9431	0.055
153.1115	39.2488	0.055
130.7849	38.3501	0.055
154.6243	38.1433	0.055
155.4866	38.1433	0.055
148.9202	38.0744	0.055
229.9582	37.5929	0.055
130.0947	37.3869	0.055
235.7428	37.1125	0.055
136.9157	37.0440	0.055
207.5173	37.0440	0.055
177.2340	36.7017	0.055
204.6079	36.0870	0.055
126.4714	35.1344	0.055
183.5605	32.9724	0.055
224.3202	32.5693	0.055
183.5422	32.2339	0.055
183.3130	32.0329	0.055
203.7883	31.8990	0.055
219.1844	31.8990	0.055
239.1343	31.6982	0.055
175.8455	31.5645	0.055
163.3324	31.4308	0.055
143.8836	30.4972	0.055
194.5049	30.1645	0.055
183.1754	28.9706	0.055
125.2594	28.6398	0.055
198.6898	28.6398	0.055
191.5658	28.3095	0.055
145.6321	28.1775	0.055
171.7071	27.9796	0.055
227.7189	27.4524	0.055
127.4944	27.0577	0.055
147.8286	26.5323	0.055
209.5463	26.1388	0.055
120.7476	25.2225	0.055
149.2293	25.0265	0.055
178.8741	24.7001	0.055
207.3949	24.1786	0.055
186.0205	24.0483	0.055
187.7989	23.8530	0.055
125.6935	23.6579	0.055
201.3065	22.6187	0.055
181.1507	21.6472	0.055
210.9010	20.0335	0.055
160.9350	19.9691	0.055
158.5656	19.7759	0.055
127.3784	19.7116	0.055
214.2968	19.7116	0.055
190.6641	19.4542	0.055
232.2914	19.2612	0.055
224.8308	19.0041	0.055
237.2497	18.5545	0.055
224.1083	18.4261	0.055
163.0142	18.1695	0.055
170.3496	17.6566	0.055
218.0341	17.3364	0.055
197.2328	16.9524	0.055
135.7603	16.3130	0.055
136.1759	16.3130	0.055
176.8344	16.2491	0.055
177.7360	16.0575	0.055
124.8710	15.1641	0.055
121.6568	14.1449	0.055
180.5001	13.0004	0.055
187.6329	12.8098	0.055
221.2278	12.6828	0.055
136.5134	12.3654	0.055
153.9237	12.2385	0.055
179.4038	11.8578	0.055
137.9234	11.2239	0.055
230.8631	11.2239	0.055
160.6826	11.1605	0.055
221.0059	11.0338	0.055
150.0738	10.3373	0.055
204.3398	9.6413	0.055
196.9065	9.3884	0.055
139.7266	9.1355	0.055
196.5569	9.0723	0.055
205.3852	8.6300	0.055
238.0776	8.4405	0.055
226.5653	8.1247	0.055
133.7676	7.8090	0.055
215.3206	7.4935	0.055
163.4960	5.4757	0.055
216.1138	5.4757	0.055
226.0626	5.3497	0.055
152.3344	5.0347	0.055
135.2921	4.6567	0.055
163.2382	4.6567	0.055
135.8406	4.4678	0.055
179.1409	2.7053	0.055
216.0345	2.5794	0.055
200.1543	2.4536	0.055
229.6105	2.3277	0.055
126.4497	59.1914	0.06
206.7987	57.6750	0.06
219.4762	57.5958	0.06
143.8846	56.9647	0.06
225.5176	56.4939	0.06
197.6452	56.2593	0.06
148.7625	55.0169	0.06
125.9058	54.9397	0.06
178.5040	54.6315	0.06
156.9052	53.7120	0.06
133.3369	53.4072	0.06
140.9137	52.2710	0.06
181.7694	51.9698	0.06
204.3792	51.8946	0.06
137.0011	51.7444	0.06
182.1674	49.9558	0.06
151.9059	49.0707	0.06
155.0901	48.1914	0.06
156.0662	47.5355	0.06
236.5798	46.7381	0.06
206.1806	46.5213	0.06
165.2400	46.0169	0.06
231.4820	45.8012	0.06
190.4457	45.0130	0.06
232.9664	44.8701	0.06
203.1584	44.4423	0.06
169.4788	42.3905	0.06
174.9564	42.3905	0.06
139.0514	41.6188	0.06
168.8296	40.8505	0.06
224.2756	40.1550	0.06
187.2787	39.7389	0.06
236.2627	39.1857	0.06
153.8647	39.1166	0.06
231.6780	39.0476	0.06
206.4998	38.7718	0.06
234.6105	38.2214	0.06
146.9864	37.6725	0.06
210.1741	37.3986	0.06
123.6182	36.9202	0.06
177.0724	36.7156	0.06
172.4981	36.5792	0.06
157.0838	36.4430	0.06
180.3303	35.0854	0.06
166.2289	34.2750	0.06
167.2190	33.4674	0.06
202.9251	33.1318	0.06
136.2595	32.3951	0.06
185.6447	31.9275	0.06
137.7681	31.3276	0.06
137.7306	31.1945	0.06
200.2191	31.0614	0.06
233.5391	29.9996	0.06
195.1409	29.4042	0.06
210.0996	29.3381	0.06
236.9328	29.3381	0.06
210.2227	29.2060	0.06
188.6502	27.9542	0.06
142.8934	26.8388	0.06
208.6501	26.8388	0.06
199.6572	26.3154	0.06
225.7492	26.0540	0.06
131.1009	25.5319	0.06
168.2844	25.1409	0.06
211.1855	24.1005	0.06
224.4112	23.9707	0.06
201.2726	23.8409	0.06
164.2287	23.5815	0.06
157.1241	23.1928	0.06
158.0513	22.4812	0.06
171.1367	22.4166	0.06
177.8183	22.4166	0.06
148.3294	21.8356	0.06
238.4335	21.5132	0.06
188.6525	21.3199	0.06
226.2844	20.9335	0.06
173.6028	20.6119	0.06
120.8321	20.3547	0.06
182.6925	19.7126	0.06
229.7106	19.3277	0.06
195.4877	18.5591	0.06
222.6272	17.5364	0.06
169.4269	17.4087	0.06
131.9893	17.0258	0.06
209.7759	15.8790	0.06
164.9130	15.6245	0.06
218.8423	15.1158	0.06
163.7197	14.4807	0.06
129.8995	14.2902	0.06
211.6825	13.9730	0.06
197.1250	13.9096	0.06
158.4561	13.5292	0.06
197.9201	13.2124	0.06
182.3588	12.7058	0.06
201.6725	12.5792	0.06
157.4211	12.3261	0.06
229.6284	11.8202	0.06
222.9877	11.2514	0.06
152.9673	10.9988	0.06
222.3207	10.6831	0.06
210.0461	10.3045	0.06
189.2531	10.2414	0.06
151.9281	9.9891	0.06
163.0053	9.8629	0.06
207.2031	9.5477	0.06
133.2310	8.7916	0.06
135.7269	8.2248	0.06
212.3772	7.9731	0.06
146.0837	6.8408	0.06
220.1407	6.7151	0.06
146.5756	6.4636	0.06
196.3976	6.1494	0.06
196.0532	5.8980	0.06
140.1073	5.1443	0.06
205.4065	5.0815	0.06
221.9403	4.3281	0.06
167.4734	4.2025	0.06
170.6612	4.2025	0.06
128.5661	3.5750	0.06
234.7907	3.3867	0.06
145.6643	2.8848	0.06
156.1016	2.7594	0.06
143.2369	2.1948	0.06
194.1786	2.1321	0.06
203.7935	1.6304	0.06
219.9302	58.4619	0.065
186.9810	58.1412	0.065
198.2977	57.2649	0.065
228.2695	57.0272	0.065
125.9390	56.0035	0.065
177.6495	56.0035	0.065
206.8156	55.3785	0.065
207.0049	55.3785	0.065
162.9451	54.9121	0.065
191.8059	53.5244	0.065
236.8423	52.0776	0.065
121.7633	52.0019	0.065
140.3308	51.9263	0.065
221.8986	51.9263	0.065
140.0035	51.5489	0.065
190.8386	50.2742	0.065
216.7113	50.1996	0.065
225.3981	48.8642	0.065
149.6462	48.4956	0.065
209.4906	48.0546	0.065
151.1420	47.1768	0.065
182.1447	47.1039	0.065
211.7447	47.0310	0.065
184.9235	45.5090	0.065
232.5317	44.8614	0.065
167.9752	44.5745	0.065
178.7269	44.1450	0.065
130.6856	43.5743	0.065
188.0096	42.8636	0.065
139.7756	42.7927	0.065
122.5472	42.6510	0.065
170.3849	42.6510	0.065
156.3214	41.9443	0.065
151.0075	40.6795	0.065
150.8880	40.5395	0.065
198.5732	40.2599	0.065
159.3576	39.9109	0.065
211.9834	39.9109	0.065
168.9970	39.8412	0.065
199.0377	39.7716	0.065
145.5566	39.2151	0.065
180.6524	38.8681	0.065
204.0926	38.1761	0.065
178.1356	36.1144	0.065
199.2609	35.4318	0.065
142.3644	35.2955	0.065
165.5571	34.0052	0.065
174.6952	33.0591	0.065
131.8152	32.9917	0.065
133.9630	32.9917	0.065
232.2445	32.7896	0.065
214.9791	30.7772	0.065
185.8643	30.7104	0.065
219.5587	30.7104	0.065
129.9475	30.6437	0.065
193.2749	30.3767	0.065
212.3990	28.8470	0.065
167.8507	28.7807	0.065
187.5962	28.7807	0.065
128.7683	28.3832	0.065
232.1247	28.0523	0.065
170.8618	27.7218	0.065
126.4386	26.3379	0.065
206.7868	26.0751	0.065
234.2542	26.0751	0.065
224.0246	25.4188	0.065
228.3937	25.3533	0.065
162.6933	23.8494	0.065
212.2633	23.5233	0.065
220.2702	22.8721	0.065
228.3459	22.7420	0.065
211.1603	22.6770	0.065
197.6425	22.0923	0.065
175.4387	21.8327	0.065
152.1962	21.3788	0.065
176.1437	21.2493	0.065
184.8815	21.1197	0.065
180.7897	20.7314	0.065
165.2191	20.6667	0.065
225.7587	20.6020	0.065
150.6559	20.3434	0.065
210.0380	19.8913	0.065
195.4622	19.5687	0.065
223.0812	19.5042	0.065
136.5907	18.4734	0.065
128.2216	18.0875	0.065
176.9484	17.7020	0.065
135.7700	17.5735	0.065
207.0985	17.3809	0.065
165.1351	17.1883	0.065
189.7950	17.1242	0.065
190.5352	16.8035	0.065
125.2266	16.0987	0.065
175.6710	16.0987	0.065
191.8193	14.5642	0.065
146.9243	14.1812	0.065
160.9472	13.9898	0.065
167.4491	13.7985	0.065
167.8610	13.6072	0.065
160.0944	13.4797	0.065
226.7186	13.4797	0.065
222.1708	13.2886	0.065
222.2383	13.2886	0.065
135.1190	12.6517	0.065
165.9453	12.3335	0.065
128.8573	12.0155	0.065
179.6910	11.8883	0.065
184.3329	11.6341	0.065
127.2926	10.3639	0.065
132.6776	10.1736	0.065
158.0399	9.9199	0.065
199.1972	9.8564	0.065
208.3666	9.6028	0.065
141.6648	9.2225	0.065
159.0119	9.0324	0.065
212.4841	8.9691	0.065
209.1318	8.8424	0.065
187.4501	8.5257	0.065
141.0567	8.2724	0.065
175.8193	7.7661	0.065
188.0425	7.7661	0.065
232.0844	7.1967	0.065
135.8287	6.3115	0.065
235.9780	5.5533	0.065
128.0033	4.2273	0.065
222.6022	4.1641	0.065
236.7555	3.7854	0.065
158.5472	3.7223	0.065
222.1227	3.7223	0.065
194.2567	3.5330	0.065
194.7181	3.0913	0.065
208.0120	3.0282	0.065
178.2327	2.7128	0.065
183.0177	2.5867	0.065
215.3790	2.3974	0.065
147.7994	2.3343	0.065
132.5211	2.0820	0.065
225.3911	57.6613	0.07
195.0569	57.0285	0.07
171.9656	56.0865	0.07
211.2568	56.0865	0.07
155.1337	55.3855	0.07
166.4877	53.9969	0.07
178.9551	50.8947	0.07
191.4634	50.8947	0.07
232.0699	50.6707	0.07
213.0243	50.0013	0.07
135.1256	49.7049	0.07
215.3330	48.2325	0.07
214.8669	48.1593	0.07
136.9669	47.7939	0.07
236.1857	46.4138	0.07
217.3911	45.8366	0.07
236.2781	45.7646	0.07
148.0871	45.1182	0.07
177.8626	44.6888	0.07
209.7802	43.7624	0.07
191.4505	43.1950	0.07
154.7486	43.1242	0.07
200.9041	42.8413	0.07
188.2233	41.9253	0.07
167.7928	41.8551	0.07
144.7175	41.7849	0.07
144.4339	41.4342	0.07
137.8570	40.5256	0.07
197.1374	39.8993	0.07
197.2747	39.7604	0.07
165.4369	39.5523	0.07
137.0955	38.7911	0.07
120.4789	38.1706	0.07
200.9570	36.8670	0.07
226.5341	36.6620	0.07
223.3496	36.1843	0.07
238.1765	35.2322	0.07
166.1352	34.2168	0.07
186.8291	33.5424	0.07
119.9172	31.8650	0.07
127.6832	31.8650	0.07
129.5034	30.6643	0.07
228.9566	30.5313	0.07
161.8273	30.4648	0.07
219.8418	30.1990	0.07
181.2065	29.6681	0.07
164.2803	29.6018	0.07
181.8676	29.5356	0.07
164.6794	29.2707	0.07
156.6837	29.2045	0.07
130.7825	28.4116	0.07
178.5014	27.5551	0.07
237.9531	27.4893	0.07
230.4113	27.2920	0.07
148.8678	26.9636	0.07
146.2472	26.6355	0.07
229.2365	26.4388	0.07
200.1019	26.3078	0.07
213.8952	25.9150	0.07
221.8237	25.2614	0.07
172.8536	25.0656	0.07
144.5619	24.8047	0.07
120.7223	24.7395	0.07
152.7387	24.7395	0.07
202.0457	24.3486	0.07
121.7131	24.2835	0.07
128.2163	24.2835	0.07
164.6013	24.1533	0.07
214.3088	24.1533	0.07
195.7915	23.8931	0.07
194.2847	23.7631	0.07
142.1623	23.4383	0.07
186.4315	23.3734	0.07
186.3584	23.3084	0.07
215.9324	22.3361	0.07
202.3225	22.2067	0.07
215.1759	21.5601	0.07
180.2388	21.1727	0.07
180.4501	21.1082	0.07
210.6522	20.3990	0.07
226.2925	19.4983	0.07
197.6312	18.9844	0.07
163.0558	18.9203	0.07
174.1633	18.7919	0.07
208.3624	18.7277	0.07
197.3313	18.6636	0.07
166.7730	18.5995	0.07
142.1048	18.4071	0.07
207.3535	18.4071	0.07
191.8027	18.2789	0.07
147.4325	18.1507	0.07
166.2371	18.1507	0.07
173.1398	17.8305	0.07
127.5958	17.7024	0.07
209.3589	17.5744	0.07
148.5117	17.1906	0.07
222.4316	17.1267	0.07
189.7412	17.0627	0.07
158.5953	16.9349	0.07
158.6647	16.9349	0.07
236.3457	16.9349	0.07
214.8922	16.7432	0.07
135.4668	16.6793	0.07
174.6324	16.0410	0.07
128.6910	15.7221	0.07
188.1782	15.6583	0.07
128.5727	15.5946	0.07
138.5575	15.2759	0.07
184.5068	14.8938	0.07
184.4371	14.8302	0.07
184.5741	14.7665	0.07
184.6430	14.7665	0.07
185.6066	14.7029	0.07
230.7688	14.5120	0.07
176.7249	14.1940	0.07
230.5091	14.1304	0.07
152.8003	14.0033	0.07
185.5892	13.5585	0.07
185.5864	13.3679	0.07
122.1048	13.3044	0.07
201.4047	12.6698	0.07
168.8746	12.0358	0.07
141.7870	11.9724	0.07
142.4979	11.6557	0.07
225.8507	11.2124	0.07
126.2759	10.6429	0.07
190.1900	10.6429	0.07
177.4351	10.5164	0.07
176.9604	10.0739	0.07
200.7395	10.0739	0.07
188.0654	10.0107	0.07
188.0645	9.9474	0.07
168.0501	9.3788	0.07
184.5146	8.9999	0.07
126.9333	8.8106	0.07
184.1040	8.6212	0.07
153.4596	8.4950	0.07
198.8436	8.3688	0.07
154.0237	7.9903	0.07
233.9755	7.6750	0.07
206.3468	7.4228	0.07
164.4946	7.2968	0.07
172.0987	6.5406	0.07
235.9132	6.3517	0.07
137.7711	6.0368	0.07
228.1695	5.9738	0.07
121.7426	5.7220	0.07
146.9965	5.5961	0.07
186.5207	5.0925	0.07
226.6857	4.6521	0.07
177.5929	4.1488	0.07
159.1509	3.3942	0.07
189.6195	3.3942	0.07
174.0816	3.2684	0.07
158.9506	3.2055	0.07
146.4622	2.7655	0.07
207.0387	2.7026	0.07
133.0936	2.6397	0.07
190.5601	2.5140	0.07
196.2997	2.5140	0.07
221.6204	2.4512	0.07
134.1120	2.3883	0.07
154.5715	2.3254	0.07
141.6821	1.8855	0.07
183.7390	1.7598	0.07
227.3432	1.5084	0.07
233.7538	1.3827	0.07
146.0102	57.3862	0.075
125.4620	56.9194	0.075
158.1212	56.4546	0.075
224.1274	56.3774	0.075
200.9442	55.9150	0.075
165.0545	55.4547	0.075
191.3514	54.8439	0.075
213.5130	54.4639	0.075
149.3774	52.5080	0.075
149.6302	52.3589	0.075
138.1985	52.2100	0.075
213.8315	51.4681	0.075
232.7252	50.2170	0.075
223.1268	49.4866	0.075
179.4394	49.2683	0.075
124.6531	48.6155	0.075
220.9910	48.3264	0.075
167.7716	48.0379	0.075
143.0844	47.4626	0.075
143.0038	47.2475	0.075
133.0094	45.8214	0.075
145.0750	45.8214	0.075
235.4720	44.6902	0.075
200.9915	44.2682	0.075
185.1099	43.5673	0.075
199.3672	42.5215	0.075
166.1963	42.3132	0.075
156.3078	41.2752	0.075
200.7772	40.4492	0.075
137.8962	40.2433	0.075
180.8698	39.4903	0.075
169.8067	39.3538	0.075
169.7509	39.0809	0.075
139.9157	38.9446	0.075
208.1351	38.6044	0.075
119.3318	38.4685	0.075
238.2567	36.5752	0.075
226.2692	35.5012	0.075
151.2185	35.0998	0.075
130.9702	34.6325	0.075
143.7258	33.7009	0.075
131.7580	32.8392	0.075
199.4956	32.5747	0.075
173.8623	32.5086	0.075
181.5850	32.2444	0.075
231.1903	32.1785	0.075
181.1238	31.8488	0.075
142.3558	31.5854	0.075
165.1594	31.5854	0.075
165.6530	31.1908	0.075
175.8949	30.9280	0.075
207.3696	30.0106	0.075
119.8627	29.8145	0.075
154.7625	29.6184	0.075
197.8760	28.5103	0.075
208.5051	28.3152	0.075
127.1264	28.2502	0.075
231.0511	28.2502	0.075
239.7611	28.2502	0.075
159.0868	28.0553	0.075
230.4532	27.7308	0.075
210.2906	26.5654	0.075
136.3134	26.3071	0.075
160.7819	26.1134	0.075
160.3137	25.6621	0.075
151.6726	25.5333	0.075
217.1782	25.2115	0.075
195.1241	25.0185	0.075
184.7355	24.9542	0.075
150.8881	24.8899	0.075
201.6795	24.7614	0.075
202.1696	24.5687	0.075
193.5754	23.7351	0.075
221.9306	22.6479	0.075
181.4975	22.0737	0.075
219.8600	21.5641	0.075
148.9371	21.1823	0.075
182.7078	20.6738	0.075
228.3895	20.6738	0.075
121.7095	20.5468	0.075
163.5013	20.4833	0.075
218.3004	20.3563	0.075
193.2330	18.9623	0.075
210.9352	18.6461	0.075
129.8417	18.5197	0.075
126.3344	18.2670	0.075
180.0537	16.9425	0.075
189.4596	16.8795	0.075
208.5368	16.6906	0.075
136.5599	16.3759	0.075
133.1646	15.9357	0.075
237.1820	15.6215	0.075
229.7668	15.4959	0.075
201.7373	15.4331	0.075
200.6774	15.3703	0.075
202.1393	15.1192	0.075
138.6695	14.7427	0.075
219.7297	14.5546	0.075
173.1095	14.1158	0.075
148.4960	14.0532	0.075
173.2520	13.9905	0.075
233.7827	12.6139	0.075
150.2930	12.5514	0.075
190.3922	12.5514	0.075
163.1858	11.5521	0.075
213.4294	11.4273	0.075
215.2917	11.1777	0.075
151.3168	10.7412	0.075
226.5254	10.6788	0.075
127.4646	10.6165	0.075
195.1400	10.3672	0.075
127.1496	10.3049	0.075
167.2056	9.7443	0.075
124.6430	9.6820	0.075
141.6971	9.0595	0.075
167.9842	9.0595	0.075
175.3419	8.3131	0.075
149.7551	7.3188	0.075
139.6663	7.1324	0.075
231.5849	6.2632	0.075
148.4859	6.2011	0.075
231.4356	6.0770	0.075
136.9717	5.7668	0.075
187.3001	5.5806	0.075
131.3326	5.3325	0.075
208.8288	5.3325	0.075
186.1243	5.2085	0.075
187.0895	5.0844	0.075
122.1064	4.9604	0.075
207.9122	4.5883	0.075
178.4673	3.7205	0.075
158.5614	2.9769	0.075
215.3859	2.8530	0.075
136.0661	1.3664	0.075
164.8521	56.9491	0.08
147.3621	56.2506	0.08
198.0837	55.4031	0.08
237.9556	55.1731	0.08
217.8014	54.9436	0.08
178.6838	54.2580	0.08
133.4902	54.0304	0.08
212.8696	53.8032	0.08
198.8031	53.6521	0.08
219.0031	53.6521	0.08
120.7064	53.4256	0.08
180.7319	53.4256	0.08
230.3791	52.0018	0.08
168.9247	51.6298	0.08
208.5586	50.8155	0.08
182.5391	49.7866	0.08
136.9337	49.7134	0.08
149.2839	48.1858	0.08
181.0984	47.1767	0.08
194.9502	47.1767	0.08
136.5943	46.4603	0.08
163.3195	45.9608	0.08
221.4699	45.9608	0.08
151.7752	45.1085	0.08
128.4749	44.3314	0.08
219.7301	43.9091	0.08
127.7337	43.1378	0.08
127.4026	42.9979	0.08
149.2031	42.5791	0.08
201.9553	41.7446	0.08
158.2009	41.3288	0.08
167.9480	41.2596	0.08
199.8582	41.2596	0.08
146.0993	40.9831	0.08
175.2233	40.9141	0.08
214.5273	40.5003	0.08
186.1887	39.4014	0.08
204.2236	39.4014	0.08
227.4250	39.1961	0.08
134.8222	38.0369	0.08
192.5174	37.7652	0.08
162.4564	37.6973	0.08
193.4220	37.5616	0.08
162.1238	36.8170	0.08
178.4719	35.8732	0.08
121.2018	35.6043	0.08
217.3258	35.2017	0.08
141.8732	34.2650	0.08
145.1236	34.1982	0.08
176.6225	33.7981	0.08
159.9223	33.7315	0.08
230.3752	33.6649	0.08
204.2604	32.8672	0.08
213.4398	32.0061	0.08
165.6461	31.9400	0.08
232.1918	31.6758	0.08
148.6447	31.5437	0.08
223.7912	31.4777	0.08
194.2922	31.4118	0.08
232.5874	30.6873	0.08
208.8595	30.0960	0.08
196.0189	29.5716	0.08
168.7911	29.3752	0.08
156.4162	28.9175	0.08
130.0282	27.3539	0.08
131.5731	27.2240	0.08
207.0693	27.1591	0.08
131.3384	27.0292	0.08
181.9323	27.0292	0.08
156.6879	26.8995	0.08
148.3698	26.0573	0.08
225.2546	26.0573	0.08
192.4664	25.7340	0.08
226.4944	25.2820	0.08
216.4601	24.0582	0.08
122.5578	23.4800	0.08
236.1867	23.0311	0.08
145.6949	22.9029	0.08
208.7252	22.7747	0.08
228.7347	21.7513	0.08
174.0558	21.5597	0.08
135.2583	20.5396	0.08
135.0375	20.2213	0.08
194.0484	19.2680	0.08
159.9329	18.1267	0.08
212.5752	17.8735	0.08
196.3530	17.2411	0.08
161.1704	17.1147	0.08
209.5810	16.8620	0.08
197.3202	16.1048	0.08
170.1491	15.6005	0.08
170.7099	15.0968	0.08
230.1748	15.0968	0.08
235.3332	14.9080	0.08
151.2168	13.8394	0.08
184.8917	13.7138	0.08
150.7109	13.3371	0.08
139.9269	13.1489	0.08
148.7604	13.0862	0.08
162.2373	12.3339	0.08
174.9852	11.8328	0.08
204.8908	11.5198	0.08
204.4683	11.2069	0.08
152.6160	9.9567	0.08
127.0067	9.0827	0.08
125.5654	8.6460	0.08
175.3541	8.4589	0.08
192.9761	8.4589	0.08
145.5044	8.2095	0.08
226.4532	8.2095	0.08
190.6168	8.1471	0.08
137.9309	7.8354	0.08
124.4833	7.0878	0.08
213.7557	7.0255	0.08
139.6245	6.3406	0.08
177.7823	6.2161	0.08
226.1896	6.1539	0.08
206.6103	6.0917	0.08
158.0757	5.9672	0.08
211.7469	5.3450	0.08
148.5314	4.6609	0.08
168.4825	4.4744	0.08
224.0994	4.3501	0.08
236.1890	3.7906	0.08
186.4832	3.6042	0.08
235.6354	3.2935	0.08
184.2080	3.2313	0.08
158.1284	3.1692	0.08
203.1322	3.1692	0.08
203.3328	3.1692	0.08
140.2142	2.8585	0.08
167.7603	2.7964	0.08
230.8679	2.6100	0.08
128.6557	2.5479	0.08
148.6442	2.4858	0.08
212.2817	2.4858	0.08
178.7250	2.4236	0.08
194.9648	1.8646	0.08
170.2693	56.9383	0.085
161.0367	56.7017	0.085
214.7014	55.8387	0.085
192.5577	55.7606	0.085
135.8031	55.4487	0.085
131.3259	55.0602	0.085
200.2534	54.9052	0.085
227.3598	54.9052	0.085
235.9179	54.2872	0.085
185.3409	53.3665	0.085
224.0651	52.9850	0.085
186.5418	52.3773	0.085
187.1740	50.4972	0.085
175.7758	49.2345	0.085
175.8632	49.2345	0.085
205.0763	48.4238	0.085
164.6353	48.0569	0.085
225.0411	48.0569	0.085
207.5237	47.9836	0.085
226.9923	47.3989	0.085
167.0359	47.0346	0.085
149.7826	46.9619	0.085
148.7190	46.3812	0.085
135.4741	45.5146	0.085
227.6567	44.0810	0.085
178.9059	43.9383	0.085
198.6935	43.3690	0.085
213.0888	43.1561	0.085
158.6372	43.0142	0.085
215.5554	42.3069	0.085
181.9054	41.7432	0.085
130.5744	41.4620	0.085
132.7494	40.5513	0.085
233.5721	40.4117	0.085
170.7568	39.5758	0.085
159.6972	39.2980	0.085
135.6848	37.9840	0.085
158.1796	37.7774	0.085
169.6896	37.4334	0.085
219.2115	36.5419	0.085
171.1758	36.1318	0.085
183.8796	36.1318	0.085
190.5799	35.7224	0.085
189.6998	35.1779	0.085
221.2235	35.1779	0.085
122.2741	34.7703	0.085
133.4487	34.4313	0.085
211.7125	34.1604	0.085
208.4569	34.0928	0.085
222.3452	33.6872	0.085
206.7030	32.8110	0.085
225.8889	32.8110	0.085
127.1464	32.3406	0.085
224.3590	32.2063	0.085
151.4257	30.2679	0.085
196.3180	30.0017	0.085
196.3912	30.0017	0.085
134.2410	29.2710	0.085
232.9876	29.2047	0.085
215.0083	29.0058	0.085
230.7670	27.8815	0.085
239.6932	27.7495	0.085
158.3781	27.6176	0.085
158.8174	26.9589	0.085
130.3858	26.4330	0.085
130.2231	26.2360	0.085
204.2736	26.1704	0.085
204.1935	26.1048	0.085
240.1166	25.9736	0.085
180.4791	25.9080	0.085
191.6044	25.2530	0.085
173.6344	25.1221	0.085
229.1028	24.5993	0.085
177.2093	24.3382	0.085
221.1325	24.2077	0.085
145.7394	24.0121	0.085
127.1781	23.6864	0.085
194.4308	21.7380	0.085
218.0417	21.5437	0.085
231.8642	21.2849	0.085
201.3311	20.4447	0.085
232.2590	20.1866	0.085
135.7385	18.3839	0.085
203.4491	18.3839	0.085
126.6605	18.0628	0.085
172.4478	17.8061	0.085
191.2385	17.7419	0.085
172.2457	17.6136	0.085
202.5920	17.1649	0.085
164.8309	16.7805	0.085
218.7124	16.5245	0.085
236.9439	16.5245	0.085
228.5406	16.4605	0.085
237.1154	16.3325	0.085
160.2579	16.1406	0.085
138.3104	15.8210	0.085
163.7784	15.8210	0.085
149.3346	14.6080	0.085
218.2164	14.6080	0.085
149.4084	14.5443	0.085
122.5915	14.1618	0.085
191.2459	13.9707	0.085
123.5184	13.9070	0.085
141.0223	13.6523	0.085
156.2220	12.7616	0.085
188.1964	11.7451	0.085
196.6828	11.6816	0.085
126.3146	11.3008	0.085
235.9506	11.3008	0.085
211.1833	11.2373	0.085
236.3273	11.0470	0.085
203.2280	10.8568	0.085
178.3536	10.5398	0.085
227.6660	10.5398	0.085
156.8163	10.4764	0.085
197.9273	10.4764	0.085
203.6842	10.4764	0.085
234.3181	10.0329	0.085
164.5704	9.3364	0.085
225.9106	9.0199	0.085
134.3330	8.8301	0.085
176.1329	8.4506	0.085
163.0448	8.3242	0.085
221.1866	8.0713	0.085
175.1254	7.8185	0.085
147.4202	7.7553	0.085
154.9028	7.7553	0.085
146.4418	7.0603	0.085
187.5220	7.0603	0.085
219.7248	5.9240	0.085
123.7655	5.7978	0.085
212.3140	5.5454	0.085
144.4634	4.1581	0.085
157.6896	4.1581	0.085
216.9543	3.4648	0.085
233.1915	3.4018	0.085
227.6800	3.0867	0.085
138.7882	3.0237	0.085
227.7453	3.0237	0.085
157.5062	2.9607	0.085
190.3769	2.8347	0.085
204.7944	2.4567	0.085
180.2478	2.3937	0.085
217.1987	2.2677	0.085
182.3266	2.2048	0.085
209.2847	2.2048	0.085
171.9328	2.0788	0.085
196.7421	1.8268	0.085
151.7659	57.1148	0.09
213.4499	56.4912	0.09
162.5220	56.1034	0.09
131.3535	56.0260	0.09
174.7663	56.0260	0.09
172.7247	55.1015	0.09
199.8649	55.0248	0.09
199.2448	54.5659	0.09
180.4243	54.1088	0.09
181.6294	52.9740	0.09
224.5654	52.7484	0.09
134.2712	52.6732	0.09
150.6762	50.9583	0.09
184.5702	50.8843	0.09
192.3983	50.5886	0.09
224.7065	49.5590	0.09
143.6149	48.6829	0.09
174.4456	48.1745	0.09
206.8718	46.5166	0.09
200.2210	46.3018	0.09
160.0800	46.0873	0.09
220.4925	45.9444	0.09
200.9061	45.5879	0.09
174.1921	45.5167	0.09
160.7469	45.3744	0.09
199.5535	44.0290	0.09
225.6556	44.0290	0.09
134.1776	42.9748	0.09
171.3782	42.9748	0.09
234.3741	42.4852	0.09
212.2874	42.2061	0.09
136.0589	41.5102	0.09
187.1062	41.4408	0.09
227.8100	41.0940	0.09
158.0488	40.5407	0.09
121.7478	40.1957	0.09
190.3050	39.2331	0.09
169.8623	39.0961	0.09
150.9602	39.0275	0.09
141.8365	38.7537	0.09
127.4101	38.4121	0.09
171.2181	38.0028	0.09
152.6664	37.8666	0.09
133.3214	37.4585	0.09
167.0694	37.0513	0.09
189.1514	36.7125	0.09
181.7339	35.4976	0.09
224.6388	35.2957	0.09
224.2394	35.0270	0.09
210.0022	34.9598	0.09
180.3420	34.2895	0.09
169.7308	34.0888	0.09
180.4148	33.0879	0.09
236.2369	32.6223	0.09
126.7297	32.5559	0.09
197.7110	31.3631	0.09
230.1172	30.8349	0.09
141.9338	30.3735	0.09
194.8380	30.3077	0.09
230.6176	30.3077	0.09
152.3694	29.8473	0.09
221.8791	28.7325	0.09
184.3797	28.6670	0.09
203.5636	28.4055	0.09
203.6371	28.4055	0.09
192.3732	28.2094	0.09
158.7443	28.1441	0.09
239.7498	28.0135	0.09
127.5287	27.9483	0.09
178.4970	27.6873	0.09
127.1335	27.5570	0.09
182.9603	27.4918	0.09
145.9518	27.1011	0.09
219.1420	26.7110	0.09
172.3203	26.5810	0.09
132.2488	26.1915	0.09
176.4094	25.8673	0.09
162.6487	24.0579	0.09
221.3686	23.0926	0.09
167.3157	22.8999	0.09
221.6056	22.8357	0.09
227.3500	22.6431	0.09
234.7721	22.6431	0.09
124.1624	22.3223	0.09
165.7297	22.0018	0.09
180.8872	21.8737	0.09
177.7589	21.7456	0.09
145.4438	21.5535	0.09
201.9097	21.5535	0.09
240.1502	21.1058	0.09
176.1476	20.2757	0.09
171.7131	19.7657	0.09
198.7662	19.4473	0.09
232.0770	19.4473	0.09
152.1736	18.4935	0.09
230.1857	18.3664	0.09
149.8988	18.1125	0.09
229.6057	17.8587	0.09
135.8355	17.0347	0.09
198.1095	16.9081	0.09
235.9496	16.5917	0.09
167.0804	16.2122	0.09
138.5857	15.7698	0.09
219.2548	15.7698	0.09
125.9805	15.4541	0.09
166.5001	15.0754	0.09
166.6438	14.9493	0.09
210.1409	14.9493	0.09
208.0345	14.6340	0.09
127.0885	14.5709	0.09
158.5252	13.8151	0.09
132.4156	13.5633	0.09
189.7617	12.9344	0.09
236.4058	12.9344	0.09
213.1476	12.8715	0.09
159.6870	12.7458	0.09
203.5225	12.2432	0.09
222.4414	11.9921	0.09
142.2632	11.6783	0.09
174.8055	11.5528	0.09
185.7341	10.9884	0.09
185.5252	10.7376	0.09
160.0554	10.6750	0.09
160.6925	10.1738	0.09
179.9639	10.1738	0.09
186.8765	9.0472	0.09
166.3500	8.7971	0.09
227.9891	8.7971	0.09
228.2429	8.5470	0.09
168.0886	7.2350	0.09
199.2105	7.2350	0.09
175.5986	6.7980	0.09
199.7435	6.7356	0.09
133.8684	6.5484	0.09
227.1436	6.4236	0.09
142.0597	6.3612	0.09
194.8237	6.2364	0.09
125.1046	6.0492	0.09
185.6185	5.7373	0.09
174.9232	5.6750	0.09
135.2860	5.4879	0.09
143.3319	5.2385	0.09
131.6292	5.0515	0.09
214.8177	4.9891	0.09
214.6056	4.7398	0.09
166.6256	4.6774	0.09
175.8129	4.6774	0.09
146.7012	4.1166	0.09
174.7309	2.8084	0.09
230.3196	2.5593	0.09
206.6658	2.1235	0.09
162.0957	2.0612	0.09
191.9898	2.0612	0.09
164.0667	1.9367	0.09
136.5587	1.4386	0.09
186.9607	1.4386	0.09
130.5841	1.1896	0.09
167.6022	1.1896	0.09
198.4386	1.0028	0.09
159.4327	57.6932	0.095
134.1276	56.5225	0.095
209.5034	56.5225	0.095
197.0927	56.3674	0.095
220.3388	56.2899	0.095
174.7095	55.9807	0.095
151.9115	55.2114	0.095
209.7424	55.2114	0.095
177.4800	54.8288	0.095
226.0857	53.0856	0.095
135.5643	53.0104	0.095
136.8242	52.3357	0.095
195.5937	51.8881	0.095
169.7488	51.7392	0.095
163.5169	51.0716	0.095
182.1934	50.0400	0.095
192.4847	49.7468	0.095
206.3111	49.6735	0.095
125.7047	49.3811	0.095
183.4087	49.3081	0.095
199.1941	48.8709	0.095
172.9480	48.7982	0.095
224.4551	47.7119	0.095
159.6283	46.9924	0.095
236.5853	46.7056	0.095
230.9836	46.6339	0.095
159.7452	46.1336	0.095
232.0227	44.9255	0.095
218.2268	43.3758	0.095
171.4537	42.6764	0.095
156.1626	42.2581	0.095
170.6934	42.0493	0.095
209.4617	41.6326	0.095
185.9403	41.2168	0.095
210.0714	40.9402	0.095
120.8058	40.8021	0.095
187.4107	40.3194	0.095
133.0554	40.1818	0.095
157.9554	39.5636	0.095
238.3800	39.5636	0.095
168.7118	39.2895	0.095
202.3247	39.2895	0.095
134.8643	39.0842	0.095
145.8257	38.9474	0.095
126.6537	38.5378	0.095
146.4602	38.4014	0.095
220.1065	36.8401	0.095
228.6703	36.7049	0.095
164.9334	36.6374	0.095
210.9433	35.8957	0.095
220.9379	35.8284	0.095
136.4296	35.6938	0.095
230.0961	34.8214	0.095
121.7269	34.6875	0.095
189.9351	34.2195	0.095
230.3558	33.8858	0.095
152.7469	33.0204	0.095
154.6277	32.6221	0.095
127.0775	32.4894	0.095
154.4373	32.4232	0.095
192.2004	32.2906	0.095
135.5936	32.1582	0.095
170.1596	32.0258	0.095
196.5000	31.8274	0.095
140.0489	31.7613	0.095
235.5313	30.5745	0.095
237.0891	30.5745	0.095
227.3741	29.5896	0.095
237.9201	29.3931	0.095
206.5845	28.6737	0.095
177.1142	28.5431	0.095
130.5602	28.4126	0.095
130.7254	28.3473	0.095
220.8712	28.0213	0.095
188.8750	27.8910	0.095
151.7595	27.6957	0.095
176.4723	27.6957	0.095
145.7718	27.3704	0.095
186.7918	26.8508	0.095
161.7453	26.2673	0.095
122.7282	26.1377	0.095
218.3114	25.9435	0.095
202.0711	25.3617	0.095
213.4900	24.7810	0.095
168.2124	24.5876	0.095
169.3049	24.2656	0.095
189.9791	23.9439	0.095
167.2526	23.8796	0.095
202.9532	23.6225	0.095
185.8730	22.7883	0.095
234.2500	22.3399	0.095
235.3638	21.0617	0.095
148.1202	20.7428	0.095
226.5869	20.5516	0.095
178.1445	20.1695	0.095
222.7786	20.1058	0.095
177.7957	19.8513	0.095
207.9419	19.4063	0.095
126.0226	19.2792	0.095
149.9786	18.7079	0.095
220.9757	18.4542	0.095
207.9642	18.2640	0.095
174.0406	18.2006	0.095
164.9185	17.8206	0.095
133.0295	17.1878	0.095
199.3678	17.0614	0.095
231.4041	16.9982	0.095
172.5407	16.8086	0.095
179.6257	16.6191	0.095
162.6224	16.5559	0.095
212.1808	15.9248	0.095
210.9560	15.4204	0.095
134.0602	15.3574	0.095
123.2840	15.2944	0.095
201.3231	15.1054	0.095
121.6890	14.9165	0.095
185.7716	14.7906	0.095
160.7335	14.4130	0.095
220.4377	14.2873	0.095
220.0521	13.9100	0.095
202.1111	13.2819	0.095
175.7145	12.9052	0.095
230.4346	12.7170	0.095
161.2360	12.5916	0.095
187.1786	12.5289	0.095
190.9416	12.0900	0.095
162.2331	11.7140	0.095
127.5137	11.6514	0.095
129.9998	11.4635	0.095
144.3806	11.4009	0.095
208.3065	11.3383	0.095
226.0135	11.1505	0.095
228.4762	11.1505	0.095
237.8031	10.7750	0.095
213.1221	10.7125	0.095
225.3564	10.7125	0.095
212.9770	10.5874	0.095
205.8674	10.5248	0.095
184.7517	10.0871	0.095
220.9661	9.6497	0.095
177.5904	8.5882	0.095
237.6900	8.4009	0.095
151.6787	7.9643	0.095
194.4608	7.9643	0.095
200.7087	7.6525	0.095
222.9814	7.2161	0.095
123.1240	6.9668	0.095
169.2488	6.4684	0.095
199.5900	6.4684	0.095
175.5633	6.0947	0.095
132.7807	5.5343	0.095
229.9336	5.2854	0.095
224.0984	5.1609	0.095
230.7147	4.6009	0.095
223.3959	4.5386	0.095
177.0607	4.4764	0.095
124.0276	4.3520	0.095
230.9724	4.2898	0.095
200.2850	3.8544	0.095
189.1089	3.0461	0.095
190.1909	2.9217	0.095
152.0298	2.7974	0.095
137.0809	2.6109	0.095
159.0685	2.6109	0.095
175.2380	2.4866	0.095
215.8240	2.2379	0.095
168.0011	2.1758	0.095
198.7046	1.3057	0.095
203.1676	1.3057	0.095
181.0554	1.2435	0.095